PE IR                   SPECTRUM    ASCII       PEDS        1.60        
  -1
NS7F8C~1.ASC
12/04/20
13:38:41.00
12/04/20
13:38:41.00

Spectrum at 643,-115,-5423 Micrometers
Aperture: 50,50
600.000000
1









SPECTRUM ONE,CPU32 MAIN 00.02.5000 17-APRIL-2002 13:00:00
MCT
MIR
CSI
68415
1.000000

4.000000
STRONG
RATIO
SPECTRUM (%R)
MAGNITUDE
AUTOIMAGE MICROSCOPE
DOUBLE

COMBINED


0


#HDR
-1
-1
#GR
CM-1
%T
0.00002384185791015625
0.0
4000.000000
-1.000000
3401
8
51.192230
2.391250
#DATA
4000.000000	18.488940 
3999.000000	18.489661 
3998.000000	18.490319 
3997.000000	18.491124 
3996.000000	18.478059 
3995.000000	18.473185 
3994.000000	18.463178 
3993.000000	18.449835 
3992.000000	18.436248 
3991.000000	18.433374 
3990.000000	18.449944 
3989.000000	18.480147 
3988.000000	18.509180 
3987.000000	18.529483 
3986.000000	18.544215 
3985.000000	18.557390 
3984.000000	18.568978 
3983.000000	18.577776 
3982.000000	18.582491 
3981.000000	18.580453 
3980.000000	18.570884 
3979.000000	18.561389 
3978.000000	18.565824 
3977.000000	18.590892 
3976.000000	18.627963 
3975.000000	18.661682 
3974.000000	18.682507 
3973.000000	18.687509 
3972.000000	18.675123 
3971.000000	18.650317 
3970.000000	18.626770 
3969.000000	18.618552 
3968.000000	18.633464 
3967.000000	18.672826 
3966.000000	18.731447 
3965.000000	18.793273 
3964.000000	18.836871 
3963.000000	18.850772 
3962.000000	18.842095 
3961.000000	18.824373 
3960.000000	18.801904 
3959.000000	18.778987 
3958.000000	18.766539 
3957.000000	18.769538 
3956.000000	18.782733 
3955.000000	18.801638 
3954.000000	18.831812 
3953.000000	18.872634 
3952.000000	18.908530 
3951.000000	18.918837 
3950.000000	18.898371 
3949.000000	18.875831 
3948.000000	18.893462 
3947.000000	18.953611 
3946.000000	19.001848 
3945.000000	18.987597 
3944.000000	18.921275 
3943.000000	18.859959 
3942.000000	18.844242 
3941.000000	18.848628 
3940.000000	18.827357 
3939.000000	18.805354 
3938.000000	18.848748 
3937.000000	18.960157 
3936.000000	19.069827 
3935.000000	19.118011 
3934.000000	19.114152 
3933.000000	19.087438 
3932.000000	19.045603 
3931.000000	18.998651 
3930.000000	18.973687 
3929.000000	18.992364 
3928.000000	19.035084 
3927.000000	19.057427 
3926.000000	19.052632 
3925.000000	19.061828 
3924.000000	19.100212 
3923.000000	19.118199 
3922.000000	19.091863 
3921.000000	19.079428 
3920.000000	19.107897 
3919.000000	19.108321 
3918.000000	19.036975 
3917.000000	18.966402 
3916.000000	18.969904 
3915.000000	19.002278 
3914.000000	18.987120 
3913.000000	18.947196 
3912.000000	18.948958 
3911.000000	19.014971 
3910.000000	19.134875 
3909.000000	19.296982 
3908.000000	19.492630 
3907.000000	19.675931 
3906.000000	19.790080 
3905.000000	19.817521 
3904.000000	19.818013 
3903.000000	19.816753 
3902.000000	19.721511 
3901.000000	19.492383 
3900.000000	19.279404 
3899.000000	19.233765 
3898.000000	19.307544 
3897.000000	19.362908 
3896.000000	19.379734 
3895.000000	19.430605 
3894.000000	19.481720 
3893.000000	19.407548 
3892.000000	19.253679 
3891.000000	19.289168 
3890.000000	19.549635 
3889.000000	19.682157 
3888.000000	19.535407 
3887.000000	19.341445 
3886.000000	19.347812 
3885.000000	19.598148 
3884.000000	19.836636 
3883.000000	19.769386 
3882.000000	19.501228 
3881.000000	19.319520 
3880.000000	19.380336 
3879.000000	19.615355 
3878.000000	19.738522 
3877.000000	19.647589 
3876.000000	19.569964 
3875.000000	19.705230 
3874.000000	20.033263 
3873.000000	20.286209 
3872.000000	20.183858 
3871.000000	19.844132 
3870.000000	19.703909 
3869.000000	19.945995 
3868.000000	20.152306 
3867.000000	19.979895 
3866.000000	19.742481 
3865.000000	19.744359 
3864.000000	19.824743 
3863.000000	19.783809 
3862.000000	19.663304 
3861.000000	19.620517 
3860.000000	19.722167 
3859.000000	19.926847 
3858.000000	20.208899 
3857.000000	20.544079 
3856.000000	20.821968 
3855.000000	20.755124 
3854.000000	20.227090 
3853.000000	19.999142 
3852.000000	20.375923 
3851.000000	20.394522 
3850.000000	19.849371 
3849.000000	19.448157 
3848.000000	19.419328 
3847.000000	19.590973 
3846.000000	19.793775 
3845.000000	19.994007 
3844.000000	20.200720 
3843.000000	20.425382 
3842.000000	20.605495 
3841.000000	20.628586 
3840.000000	20.471716 
3839.000000	20.235501 
3838.000000	20.099995 
3837.000000	20.155697 
3836.000000	20.266766 
3835.000000	20.234362 
3834.000000	20.053033 
3833.000000	19.869916 
3832.000000	19.822144 
3831.000000	19.912908 
3830.000000	20.002323 
3829.000000	19.968553 
3828.000000	19.867785 
3827.000000	19.896797 
3826.000000	20.173011 
3825.000000	20.546850 
3824.000000	20.756924 
3823.000000	20.731243 
3822.000000	20.570880 
3821.000000	20.553293 
3820.000000	20.816691 
3819.000000	20.815077 
3818.000000	20.274233 
3817.000000	19.701707 
3816.000000	19.541246 
3815.000000	19.772338 
3814.000000	19.925271 
3813.000000	19.757801 
3812.000000	19.625361 
3811.000000	19.787744 
3810.000000	20.039912 
3809.000000	20.090209 
3808.000000	19.960957 
3807.000000	20.008035 
3806.000000	20.397688 
3805.000000	20.729943 
3804.000000	20.646759 
3803.000000	20.342925 
3802.000000	20.137290 
3801.000000	20.283205 
3800.000000	20.614663 
3799.000000	20.536584 
3798.000000	20.065438 
3797.000000	19.692884 
3796.000000	19.591352 
3795.000000	19.623532 
3794.000000	19.595217 
3793.000000	19.508837 
3792.000000	19.482366 
3791.000000	19.531339 
3790.000000	19.592669 
3789.000000	19.654140 
3788.000000	19.725318 
3787.000000	19.772544 
3786.000000	19.763489 
3785.000000	19.755294 
3784.000000	19.820055 
3783.000000	19.912410 
3782.000000	19.929989 
3781.000000	19.862735 
3780.000000	19.775207 
3779.000000	19.738700 
3778.000000	19.737534 
3777.000000	19.665856 
3776.000000	19.543252 
3775.000000	19.529842 
3774.000000	19.675861 
3773.000000	19.836773 
3772.000000	19.878503 
3771.000000	19.844452 
3770.000000	19.876811 
3769.000000	19.984044 
3768.000000	19.978237 
3767.000000	19.773559 
3766.000000	19.574841 
3765.000000	19.594203 
3764.000000	19.774458 
3763.000000	19.897810 
3762.000000	19.921133 
3761.000000	19.977881 
3760.000000	20.060555 
3759.000000	20.068148 
3758.000000	20.057468 
3757.000000	20.140321 
3756.000000	20.302873 
3755.000000	20.474727 
3754.000000	20.676707 
3753.000000	20.882655 
3752.000000	20.837754 
3751.000000	20.463041 
3750.000000	20.255549 
3749.000000	20.478265 
3748.000000	20.679935 
3747.000000	20.457602 
3746.000000	19.957088 
3745.000000	19.572758 
3744.000000	19.775739 
3743.000000	20.367814 
3742.000000	20.445291 
3741.000000	20.083035 
3740.000000	20.048582 
3739.000000	20.400014 
3738.000000	20.750038 
3737.000000	20.832458 
3736.000000	20.701479 
3735.000000	20.479650 
3734.000000	20.192649 
3733.000000	19.900603 
3732.000000	19.791376 
3731.000000	19.886398 
3730.000000	19.943998 
3729.000000	19.834703 
3728.000000	19.703724 
3727.000000	19.694944 
3726.000000	19.757194 
3725.000000	19.743896 
3724.000000	19.613259 
3723.000000	19.476205 
3722.000000	19.403837 
3721.000000	19.352086 
3720.000000	19.247435 
3719.000000	19.104996 
3718.000000	19.039588 
3717.000000	19.124868 
3716.000000	19.315930 
3715.000000	19.540044 
3714.000000	19.777483 
3713.000000	19.937832 
3712.000000	19.864844 
3711.000000	19.626538 
3710.000000	19.416337 
3709.000000	19.238607 
3708.000000	19.053415 
3707.000000	18.909757 
3706.000000	18.841761 
3705.000000	18.819113 
3704.000000	18.791103 
3703.000000	18.722098 
3702.000000	18.631774 
3701.000000	18.587354 
3700.000000	18.559534 
3699.000000	18.435259 
3698.000000	18.244778 
3697.000000	18.140824 
3696.000000	18.176160 
3695.000000	18.270209 
3694.000000	18.372661 
3693.000000	18.519961 
3692.000000	18.658491 
3691.000000	18.572014 
3690.000000	18.161572 
3689.000000	17.729051 
3688.000000	17.589018 
3687.000000	17.562092 
3686.000000	17.340867 
3685.000000	17.001500 
3684.000000	16.791616 
3683.000000	16.748002 
3682.000000	16.749858 
3681.000000	16.754167 
3680.000000	16.855738 
3679.000000	17.052437 
3678.000000	17.148702 
3677.000000	16.983204 
3676.000000	16.694342 
3675.000000	16.726196 
3674.000000	16.952248 
3673.000000	16.743692 
3672.000000	16.198318 
3671.000000	15.812860 
3670.000000	15.675598 
3669.000000	15.697716 
3668.000000	15.640575 
3667.000000	15.357991 
3666.000000	15.028075 
3665.000000	14.817828 
3664.000000	14.702437 
3663.000000	14.609426 
3662.000000	14.533625 
3661.000000	14.499163 
3660.000000	14.481834 
3659.000000	14.409671 
3658.000000	14.257006 
3657.000000	14.106011 
3656.000000	14.087983 
3655.000000	14.170520 
3654.000000	14.146877 
3653.000000	14.015235 
3652.000000	13.980886 
3651.000000	14.045117 
3650.000000	13.980191 
3649.000000	13.806796 
3648.000000	13.739990 
3647.000000	13.725772 
3646.000000	13.584320 
3645.000000	13.286877 
3644.000000	12.941547 
3643.000000	12.668878 
3642.000000	12.507999 
3641.000000	12.414128 
3640.000000	12.331951 
3639.000000	12.252639 
3638.000000	12.192622 
3637.000000	12.127855 
3636.000000	12.033704 
3635.000000	11.961530 
3634.000000	11.974611 
3633.000000	12.015962 
3632.000000	11.947386 
3631.000000	11.757580 
3630.000000	11.590507 
3629.000000	11.647890 
3628.000000	11.976076 
3627.000000	12.160799 
3626.000000	11.896683 
3625.000000	11.474243 
3624.000000	11.195484 
3623.000000	11.061187 
3622.000000	10.980800 
3621.000000	10.941368 
3620.000000	10.995278 
3619.000000	11.156968 
3618.000000	11.328113 
3617.000000	11.338272 
3616.000000	11.154871 
3615.000000	10.934984 
3614.000000	10.833885 
3613.000000	10.865312 
3612.000000	10.912016 
3611.000000	10.856726 
3610.000000	10.715301 
3609.000000	10.598986 
3608.000000	10.569750 
3607.000000	10.579006 
3606.000000	10.531060 
3605.000000	10.404003 
3604.000000	10.261556 
3603.000000	10.158106 
3602.000000	10.105972 
3601.000000	10.100548 
3600.000000	10.120530 
3599.000000	10.118750 
3598.000000	10.069999 
3597.000000	10.000672 
3596.000000	9.955339  
3595.000000	9.961353  
3594.000000	10.003366 
3593.000000	10.022247 
3592.000000	9.959012  
3591.000000	9.823452  
3590.000000	9.693136  
3589.000000	9.655685  
3588.000000	9.748064  
3587.000000	9.925565  
3586.000000	10.044490 
3585.000000	9.979091  
3584.000000	9.773722  
3583.000000	9.564537  
3582.000000	9.428761  
3581.000000	9.366158  
3580.000000	9.347349  
3579.000000	9.345051  
3578.000000	9.342078  
3577.000000	9.333531  
3576.000000	9.320191  
3575.000000	9.307127  
3574.000000	9.295188  
3573.000000	9.274332  
3572.000000	9.226918  
3571.000000	9.146374  
3570.000000	9.059249  
3569.000000	9.027762  
3568.000000	9.112195  
3567.000000	9.307307  
3566.000000	9.500729  
3565.000000	9.543044  
3564.000000	9.411620  
3563.000000	9.221902  
3562.000000	9.080361  
3561.000000	9.010576  
3560.000000	8.982183  
3559.000000	8.959669  
3558.000000	8.927062  
3557.000000	8.888500  
3556.000000	8.853460  
3555.000000	8.825917  
3554.000000	8.811061  
3553.000000	8.819208  
3552.000000	8.848656  
3551.000000	8.865196  
3550.000000	8.829931  
3549.000000	8.754897  
3548.000000	8.701734  
3547.000000	8.718885  
3546.000000	8.796523  
3545.000000	8.877927  
3544.000000	8.909992  
3543.000000	8.883257  
3542.000000	8.823439  
3541.000000	8.757466  
3540.000000	8.695961  
3539.000000	8.640799  
3538.000000	8.600470  
3537.000000	8.586975  
3536.000000	8.600529  
3535.000000	8.623204  
3534.000000	8.636947  
3533.000000	8.641623  
3532.000000	8.645835  
3531.000000	8.647864  
3530.000000	8.638147  
3529.000000	8.620358  
3528.000000	8.609766  
3527.000000	8.609928  
3526.000000	8.607494  
3525.000000	8.598004  
3524.000000	8.594864  
3523.000000	8.605315  
3522.000000	8.612460  
3521.000000	8.594556  
3520.000000	8.552773  
3519.000000	8.512774  
3518.000000	8.487317  
3517.000000	8.477259  
3516.000000	8.454170  
3515.000000	8.415404  
3514.000000	8.410774  
3513.000000	8.399318  
3512.000000	8.396990  
3511.000000	8.402506  
3510.000000	8.415315  
3509.000000	8.426380  
3508.000000	8.431504  
3507.000000	8.430101  
3506.000000	8.423850  
3505.000000	8.411500  
3504.000000	8.399525  
3503.000000	8.384052  
3502.000000	8.383183  
3501.000000	8.364691  
3500.000000	8.385050  
3499.000000	8.435750  
3498.000000	8.346390  
3497.000000	8.320814  
3496.000000	8.316311  
3495.000000	8.336945  
3494.000000	8.352136  
3493.000000	8.361214  
3492.000000	8.366289  
3491.000000	8.374064  
3490.000000	8.381640  
3489.000000	8.381385  
3488.000000	8.369038  
3487.000000	8.345998  
3486.000000	8.317378  
3485.000000	8.293784  
3484.000000	8.292441  
3483.000000	8.327198  
3482.000000	8.392509  
3481.000000	8.459930  
3480.000000	8.495417  
3479.000000	8.484593  
3478.000000	8.442032  
3477.000000	8.397624  
3476.000000	8.373426  
3475.000000	8.370177  
3474.000000	8.371866  
3473.000000	8.361856  
3472.000000	8.336026  
3471.000000	8.302822  
3470.000000	8.274245  
3469.000000	8.259046  
3468.000000	8.260082  
3467.000000	8.271429  
3466.000000	8.278872  
3465.000000	8.270249  
3464.000000	8.248632  
3463.000000	8.230320  
3462.000000	8.228102  
3461.000000	8.239929  
3460.000000	8.255431  
3459.000000	8.269664  
3458.000000	8.285750  
3457.000000	8.305961  
3456.000000	8.325747  
3455.000000	8.336024  
3454.000000	8.331495  
3453.000000	8.316848  
3452.000000	8.301562  
3451.000000	8.289664  
3450.000000	8.280666  
3449.000000	8.280950  
3448.000000	8.300905  
3447.000000	8.334530  
3446.000000	8.351625  
3445.000000	8.326352  
3444.000000	8.269955  
3443.000000	8.219477  
3442.000000	8.197669  
3441.000000	8.198168  
3440.000000	8.206410  
3439.000000	8.219252  
3438.000000	8.239149  
3437.000000	8.261348  
3436.000000	8.277381  
3435.000000	8.284382  
3434.000000	8.285208  
3433.000000	8.283629  
3432.000000	8.281707  
3431.000000	8.279032  
3430.000000	8.272671  
3429.000000	8.261296  
3428.000000	8.248445  
3427.000000	8.239368  
3426.000000	8.234145  
3425.000000	8.228105  
3424.000000	8.221267  
3423.000000	8.224065  
3422.000000	8.248091  
3421.000000	8.288280  
3420.000000	8.318334  
3419.000000	8.310452  
3418.000000	8.262838  
3417.000000	8.205688  
3416.000000	8.177257  
3415.000000	8.192682  
3414.000000	8.234076  
3413.000000	8.268786  
3412.000000	8.275828  
3411.000000	8.256080  
3410.000000	8.223563  
3409.000000	8.192426  
3408.000000	8.170294  
3407.000000	8.158189  
3406.000000	8.153291  
3405.000000	8.151562  
3404.000000	8.150252  
3403.000000	8.148779  
3402.000000	8.147029  
3401.000000	8.144298  
3400.000000	8.142815  
3399.000000	8.150492  
3398.000000	8.173020  
3397.000000	8.201904  
3396.000000	8.217855  
3395.000000	8.212031  
3394.000000	8.198025  
3393.000000	8.195101  
3392.000000	8.202542  
3391.000000	8.199595  
3390.000000	8.171713  
3389.000000	8.128118  
3388.000000	8.089431  
3387.000000	8.066027  
3386.000000	8.054530  
3385.000000	8.049799  
3384.000000	8.053116  
3383.000000	8.068613  
3382.000000	8.096602  
3381.000000	8.130944  
3380.000000	8.159493  
3379.000000	8.168114  
3378.000000	8.149356  
3377.000000	8.110133  
3376.000000	8.068849  
3375.000000	8.043017  
3374.000000	8.039277  
3373.000000	8.054019  
3372.000000	8.079293  
3371.000000	8.106145  
3370.000000	8.125835  
3369.000000	8.133286  
3368.000000	8.130355  
3367.000000	8.123191  
3366.000000	8.117472  
3365.000000	8.118275  
3364.000000	8.131179  
3363.000000	8.157324  
3362.000000	8.187733  
3361.000000	8.208679  
3360.000000	8.214311  
3359.000000	8.209362  
3358.000000	8.199193  
3357.000000	8.183974  
3356.000000	8.165481  
3355.000000	8.152842  
3354.000000	8.154505  
3353.000000	8.167506  
3352.000000	8.181827  
3351.000000	8.194733  
3350.000000	8.214187  
3349.000000	8.246369  
3348.000000	8.284077  
3347.000000	8.309847  
3346.000000	8.310044  
3345.000000	8.285798  
3344.000000	8.252658  
3343.000000	8.229972  
3342.000000	8.227166  
3341.000000	8.237583  
3340.000000	8.245808  
3339.000000	8.242384  
3338.000000	8.231876  
3337.000000	8.227602  
3336.000000	8.239392  
3335.000000	8.265410  
3334.000000	8.293716  
3333.000000	8.311713  
3332.000000	8.315141  
3331.000000	8.308763  
3330.000000	8.299951  
3329.000000	8.293039  
3328.000000	8.289223  
3327.000000	8.288692  
3326.000000	8.290667  
3325.000000	8.293084  
3324.000000	8.295529  
3323.000000	8.301601  
3322.000000	8.314209  
3321.000000	8.328745  
3320.000000	8.335753  
3319.000000	8.331758  
3318.000000	8.323404  
3317.000000	8.318698  
3316.000000	8.317798  
3315.000000	8.315794  
3314.000000	8.312087  
3313.000000	8.312734  
3312.000000	8.323683  
3311.000000	8.345508  
3310.000000	8.374723  
3309.000000	8.406382  
3308.000000	8.433747  
3307.000000	8.449024  
3306.000000	8.448774  
3305.000000	8.438632  
3304.000000	8.430244  
3303.000000	8.432094  
3302.000000	8.443624  
3301.000000	8.458231  
3300.000000	8.470750  
3299.000000	8.480653  
3298.000000	8.489065  
3297.000000	8.495284  
3296.000000	8.497253  
3295.000000	8.494753  
3294.000000	8.490768  
3293.000000	8.489913  
3292.000000	8.496138  
3291.000000	8.510631  
3290.000000	8.530337  
3289.000000	8.549566  
3288.000000	8.564219  
3287.000000	8.573849  
3286.000000	8.578793  
3285.000000	8.576901  
3284.000000	8.566387  
3283.000000	8.552586  
3282.000000	8.547616  
3281.000000	8.559597  
3280.000000	8.583517  
3279.000000	8.605275  
3278.000000	8.614481  
3277.000000	8.612417  
3276.000000	8.608832  
3275.000000	8.612060  
3274.000000	8.621631  
3273.000000	8.629628  
3272.000000	8.629138  
3271.000000	8.621083  
3270.000000	8.612335  
3269.000000	8.608683  
3268.000000	8.612380  
3267.000000	8.626184  
3266.000000	8.654911  
3265.000000	8.698748  
3264.000000	8.746589  
3263.000000	8.780973  
3262.000000	8.790017  
3261.000000	8.773768  
3260.000000	8.742791  
3259.000000	8.713512  
3258.000000	8.701544  
3257.000000	8.713654  
3256.000000	8.743540  
3255.000000	8.775989  
3254.000000	8.797242  
3253.000000	8.802347  
3252.000000	8.794605  
3251.000000	8.780623  
3250.000000	8.765808  
3249.000000	8.753261  
3248.000000	8.747135  
3247.000000	8.756100  
3246.000000	8.788763  
3245.000000	8.842133  
3244.000000	8.897762  
3243.000000	8.935526  
3242.000000	8.951119  
3241.000000	8.956349  
3240.000000	8.963880  
3239.000000	8.975907  
3238.000000	8.986773  
3237.000000	8.991763  
3236.000000	8.991439  
3235.000000	8.990434  
3234.000000	8.995058  
3233.000000	9.009423  
3232.000000	9.030717  
3231.000000	9.049886  
3230.000000	9.058994  
3229.000000	9.057125  
3228.000000	9.048064  
3227.000000	9.034778  
3226.000000	9.020268  
3225.000000	9.011713  
3224.000000	9.016947  
3223.000000	9.035080  
3222.000000	9.054687  
3221.000000	9.064782  
3220.000000	9.066104  
3219.000000	9.068785  
3218.000000	9.080606  
3217.000000	9.102383  
3216.000000	9.133529  
3215.000000	9.174100  
3214.000000	9.218998  
3213.000000	9.256648  
3212.000000	9.278232  
3211.000000	9.284784  
3210.000000	9.281721  
3209.000000	9.270537  
3208.000000	9.251422  
3207.000000	9.231878  
3206.000000	9.225556  
3205.000000	9.240359  
3204.000000	9.271623  
3203.000000	9.309379  
3202.000000	9.349060  
3201.000000	9.392202  
3200.000000	9.438548  
3199.000000	9.480326  
3198.000000	9.504757  
3197.000000	9.502313  
3196.000000	9.475177  
3195.000000	9.439211  
3194.000000	9.415952  
3193.000000	9.418439  
3192.000000	9.441600  
3191.000000	9.466867  
3190.000000	9.478585  
3189.000000	9.477446  
3188.000000	9.478486  
3187.000000	9.496278  
3186.000000	9.531219  
3185.000000	9.569481  
3184.000000	9.595314  
3183.000000	9.602127  
3182.000000	9.593794  
3181.000000	9.580104  
3180.000000	9.572106  
3179.000000	9.577136  
3178.000000	9.594033  
3177.000000	9.613528  
3176.000000	9.626125  
3175.000000	9.630247  
3174.000000	9.631941  
3173.000000	9.637374  
3172.000000	9.647532  
3171.000000	9.660267  
3170.000000	9.675130  
3169.000000	9.694019  
3168.000000	9.716508  
3167.000000	9.735754  
3166.000000	9.741776  
3165.000000	9.732091  
3164.000000	9.718655  
3163.000000	9.719716  
3162.000000	9.742345  
3161.000000	9.775200  
3160.000000	9.800266  
3159.000000	9.809699  
3158.000000	9.810322  
3157.000000	9.814330  
3156.000000	9.828027  
3155.000000	9.848941  
3154.000000	9.871923  
3153.000000	9.896783  
3152.000000	9.928353  
3151.000000	9.966960  
3150.000000	10.000437 
3149.000000	10.011472 
3148.000000	9.996221  
3147.000000	9.972273  
3146.000000	9.963769  
3145.000000	9.979561  
3144.000000	10.008880 
3143.000000	10.036407 
3142.000000	10.056461 
3141.000000	10.071705 
3140.000000	10.083909 
3139.000000	10.090694 
3138.000000	10.089051 
3137.000000	10.078896 
3136.000000	10.064905 
3135.000000	10.056685 
3134.000000	10.064419 
3133.000000	10.090448 
3132.000000	10.124958 
3131.000000	10.152975 
3130.000000	10.167221 
3129.000000	10.173643 
3128.000000	10.183566 
3127.000000	10.200003 
3126.000000	10.213717 
3125.000000	10.215301 
3124.000000	10.208038 
3123.000000	10.204698 
3122.000000	10.213479 
3121.000000	10.231072 
3120.000000	10.249363 
3119.000000	10.264092 
3118.000000	10.274173 
3117.000000	10.277676 
3116.000000	10.274442 
3115.000000	10.269936 
3114.000000	10.270222 
3113.000000	10.273549 
3112.000000	10.272111 
3111.000000	10.262808 
3110.000000	10.252857 
3109.000000	10.253654 
3108.000000	10.270782 
3107.000000	10.300170 
3106.000000	10.331598 
3105.000000	10.355081 
3104.000000	10.365476 
3103.000000	10.365006 
3102.000000	10.363088 
3101.000000	10.369220 
3100.000000	10.382465 
3099.000000	10.391421 
3098.000000	10.387850 
3097.000000	10.377628 
3096.000000	10.375093 
3095.000000	10.387845 
3094.000000	10.410410 
3093.000000	10.431901 
3092.000000	10.444892 
3091.000000	10.446029 
3090.000000	10.435116 
3089.000000	10.418780 
3088.000000	10.410389 
3087.000000	10.418752 
3086.000000	10.436783 
3085.000000	10.447680 
3084.000000	10.444064 
3083.000000	10.436391 
3082.000000	10.439922 
3081.000000	10.457210 
3080.000000	10.477455 
3079.000000	10.490273 
3078.000000	10.494262 
3077.000000	10.492678 
3076.000000	10.487057 
3075.000000	10.476345 
3074.000000	10.459277 
3073.000000	10.437765 
3072.000000	10.420292 
3071.000000	10.420474 
3070.000000	10.446056 
3069.000000	10.487149 
3068.000000	10.520741 
3067.000000	10.531342 
3066.000000	10.524191 
3065.000000	10.514535 
3064.000000	10.509377 
3063.000000	10.507280 
3062.000000	10.511010 
3061.000000	10.528037 
3060.000000	10.557006 
3059.000000	10.582727 
3058.000000	10.588995 
3057.000000	10.572432 
3056.000000	10.542202 
3055.000000	10.511489 
3054.000000	10.492181 
3053.000000	10.491852 
3052.000000	10.509452 
3051.000000	10.535101 
3050.000000	10.557597 
3049.000000	10.571468 
3048.000000	10.576282 
3047.000000	10.573272 
3046.000000	10.565370 
3045.000000	10.557564 
3044.000000	10.553608 
3043.000000	10.553767 
3042.000000	10.557069 
3041.000000	10.563282 
3040.000000	10.571153 
3039.000000	10.576736 
3038.000000	10.576223 
3037.000000	10.569544 
3036.000000	10.559417 
3035.000000	10.548214 
3034.000000	10.536415 
3033.000000	10.522472 
3032.000000	10.504107 
3031.000000	10.481365 
3030.000000	10.457834 
3029.000000	10.436325 
3028.000000	10.413925 
3027.000000	10.385420 
3026.000000	10.352812 
3025.000000	10.327029 
3024.000000	10.315459 
3023.000000	10.310505 
3022.000000	10.296498 
3021.000000	10.266942 
3020.000000	10.229346 
3019.000000	10.193619 
3018.000000	10.161933 
3017.000000	10.131585 
3016.000000	10.102425 
3015.000000	10.077264 
3014.000000	10.057034 
3013.000000	10.038521 
3012.000000	10.016163 
3011.000000	9.984531  
3010.000000	9.940513  
3009.000000	9.885949  
3008.000000	9.828278  
3007.000000	9.776410  
3006.000000	9.734556  
3005.000000	9.700481  
3004.000000	9.669596  
3003.000000	9.638417  
3002.000000	9.603389  
3001.000000	9.559661  
3000.000000	9.505260  
2999.000000	9.446744  
2998.000000	9.395644  
2997.000000	9.356344  
2996.000000	9.320836  
2995.000000	9.278624  
2994.000000	9.229648  
2993.000000	9.183708  
2992.000000	9.148251  
2991.000000	9.120753  
2990.000000	9.092983  
2989.000000	9.059675  
2988.000000	9.023120  
2987.000000	8.991715  
2986.000000	8.972687  
2985.000000	8.963020  
2984.000000	8.949296  
2983.000000	8.920736  
2982.000000	8.881633  
2981.000000	8.846384  
2980.000000	8.822506  
2979.000000	8.804710  
2978.000000	8.786701  
2977.000000	8.770894  
2976.000000	8.762358  
2975.000000	8.759140  
2974.000000	8.754156  
2973.000000	8.742147  
2972.000000	8.718835  
2971.000000	8.677958  
2970.000000	8.618049  
2969.000000	8.550747  
2968.000000	8.493550  
2967.000000	8.452423  
2966.000000	8.418139  
2965.000000	8.382418  
2964.000000	8.351157  
2963.000000	8.336603  
2962.000000	8.340401  
2961.000000	8.350574  
2960.000000	8.354202  
2959.000000	8.347983  
2958.000000	8.336002  
2957.000000	8.321590  
2956.000000	8.304269  
2955.000000	8.282917  
2954.000000	8.259517  
2953.000000	8.239960  
2952.000000	8.232214  
2951.000000	8.242907  
2950.000000	8.272713  
2949.000000	8.312538  
2948.000000	8.345108  
2947.000000	8.354987  
2946.000000	8.341593  
2945.000000	8.322460  
2944.000000	8.319773  
2943.000000	8.340665  
2942.000000	8.370921  
2941.000000	8.389318  
2940.000000	8.387652  
2939.000000	8.376320  
2938.000000	8.372227  
2937.000000	8.384006  
2936.000000	8.408188  
2935.000000	8.434728  
2934.000000	8.453465  
2933.000000	8.457962  
2932.000000	8.448532  
2931.000000	8.433187  
2930.000000	8.422697  
2929.000000	8.422943  
2928.000000	8.433352  
2927.000000	8.452980  
2926.000000	8.483719  
2925.000000	8.523334  
2924.000000	8.558626  
2923.000000	8.573499  
2922.000000	8.566386  
2921.000000	8.554630  
2920.000000	8.558022  
2919.000000	8.581039  
2918.000000	8.613783  
2917.000000	8.645870  
2916.000000	8.673714  
2915.000000	8.696811  
2914.000000	8.714753  
2913.000000	8.730539  
2912.000000	8.751804  
2911.000000	8.784140  
2910.000000	8.824437  
2909.000000	8.862778  
2908.000000	8.890248  
2907.000000	8.904120  
2906.000000	8.907371  
2905.000000	8.906332  
2904.000000	8.909117  
2903.000000	8.923231  
2902.000000	8.952041  
2901.000000	8.991729  
2900.000000	9.032460  
2899.000000	9.062451  
2898.000000	9.074666  
2897.000000	9.071819  
2896.000000	9.063115  
2895.000000	9.055925  
2894.000000	9.050505  
2893.000000	9.043734  
2892.000000	9.035925  
2891.000000	9.031381  
2890.000000	9.032851  
2889.000000	9.038792  
2888.000000	9.047165  
2887.000000	9.059269  
2886.000000	9.077710  
2885.000000	9.102026  
2884.000000	9.128239  
2883.000000	9.151292  
2882.000000	9.166105  
2881.000000	9.168259  
2880.000000	9.157895  
2879.000000	9.143386  
2878.000000	9.137191  
2877.000000	9.145683  
2876.000000	9.164660  
2875.000000	9.186218  
2874.000000	9.207097  
2873.000000	9.227588  
2872.000000	9.245866  
2871.000000	9.259680  
2870.000000	9.273707  
2869.000000	9.298388  
2868.000000	9.337368  
2867.000000	9.380033  
2866.000000	9.411479  
2865.000000	9.428572  
2864.000000	9.441941  
2863.000000	9.463167  
2862.000000	9.494900  
2861.000000	9.533368  
2860.000000	9.574144  
2859.000000	9.612184  
2858.000000	9.641464  
2857.000000	9.660907  
2856.000000	9.679490  
2855.000000	9.709625  
2854.000000	9.753565  
2853.000000	9.799439  
2852.000000	9.832890  
2851.000000	9.850446  
2850.000000	9.859797  
2849.000000	9.869463  
2848.000000	9.882073  
2847.000000	9.898211  
2846.000000	9.922449  
2845.000000	9.962135  
2844.000000	10.020759 
2843.000000	10.093629 
2842.000000	10.169566 
2841.000000	10.235998 
2840.000000	10.284453 
2839.000000	10.314887 
2838.000000	10.336247 
2837.000000	10.361915 
2836.000000	10.402768 
2835.000000	10.462416 
2834.000000	10.536178 
2833.000000	10.613088 
2832.000000	10.680638 
2831.000000	10.731336 
2830.000000	10.766435 
2829.000000	10.792615 
2828.000000	10.815317 
2827.000000	10.836802 
2826.000000	10.859788 
2825.000000	10.888459 
2824.000000	10.923187 
2823.000000	10.956514 
2822.000000	10.977993 
2821.000000	10.983728 
2820.000000	10.980476 
2819.000000	10.981239 
2818.000000	10.997200 
2817.000000	11.031142 
2816.000000	11.075184 
2815.000000	11.115291 
2814.000000	11.140992 
2813.000000	11.151517 
2812.000000	11.152291 
2811.000000	11.148076 
2810.000000	11.143235 
2809.000000	11.146342 
2808.000000	11.166775 
2807.000000	11.203683 
2806.000000	11.243682 
2805.000000	11.274887 
2804.000000	11.300269 
2803.000000	11.331799 
2802.000000	11.373166 
2801.000000	11.414506 
2800.000000	11.444546 
2799.000000	11.461304 
2798.000000	11.468274 
2797.000000	11.466276 
2796.000000	11.455007 
2795.000000	11.439836 
2794.000000	11.430505 
2793.000000	11.432106 
2792.000000	11.440781 
2791.000000	11.448995 
2790.000000	11.452364 
2789.000000	11.451101 
2788.000000	11.448053 
2787.000000	11.447166 
2786.000000	11.451934 
2785.000000	11.463398 
2784.000000	11.480010 
2783.000000	11.499747 
2782.000000	11.521201 
2781.000000	11.542252 
2780.000000	11.559501 
2779.000000	11.570632 
2778.000000	11.577009 
2777.000000	11.582830 
2776.000000	11.591239 
2775.000000	11.601110 
2774.000000	11.607645 
2773.000000	11.607119 
2772.000000	11.601866 
2771.000000	11.599797 
2770.000000	11.607671 
2769.000000	11.625080 
2768.000000	11.645710 
2767.000000	11.663061 
2766.000000	11.673083 
2765.000000	11.673358 
2764.000000	11.664447 
2763.000000	11.652994 
2762.000000	11.649337 
2761.000000	11.658970 
2760.000000	11.678093 
2759.000000	11.699389 
2758.000000	11.720082 
2757.000000	11.741719 
2756.000000	11.763911 
2755.000000	11.782704 
2754.000000	11.796196 
2753.000000	11.808038 
2752.000000	11.821736 
2751.000000	11.832360 
2750.000000	11.828761 
2749.000000	11.807423 
2748.000000	11.781794 
2747.000000	11.772335 
2746.000000	11.785522 
2745.000000	11.807594 
2744.000000	11.822143 
2743.000000	11.829037 
2742.000000	11.839941 
2741.000000	11.858457 
2740.000000	11.873763 
2739.000000	11.875340 
2738.000000	11.866749 
2737.000000	11.861393 
2736.000000	11.869564 
2735.000000	11.892443 
2734.000000	11.923696 
2733.000000	11.953077 
2732.000000	11.972682 
2731.000000	11.984100 
2730.000000	11.995968 
2729.000000	12.010568 
2728.000000	12.017242 
2727.000000	12.005248 
2726.000000	11.980661 
2725.000000	11.963323 
2724.000000	11.967307 
2723.000000	11.989981 
2722.000000	12.019924 
2721.000000	12.048592 
2720.000000	12.071625 
2719.000000	12.085400 
2718.000000	12.088666 
2717.000000	12.086080 
2716.000000	12.085223 
2715.000000	12.088984 
2714.000000	12.093060 
2713.000000	12.092008 
2712.000000	12.086589 
2711.000000	12.083937 
2710.000000	12.090635 
2709.000000	12.106357 
2708.000000	12.124357 
2707.000000	12.137327 
2706.000000	12.141997 
2705.000000	12.139243 
2704.000000	12.132397 
2703.000000	12.126653 
2702.000000	12.128264 
2701.000000	12.141727 
2700.000000	12.166982 
2699.000000	12.199352 
2698.000000	12.231760 
2697.000000	12.257297 
2696.000000	12.271549 
2695.000000	12.274105 
2694.000000	12.267660 
2693.000000	12.255470 
2692.000000	12.240484 
2691.000000	12.226730 
2690.000000	12.219169 
2689.000000	12.220609 
2688.000000	12.229505 
2687.000000	12.241447 
2686.000000	12.252061 
2685.000000	12.258533 
2684.000000	12.260419 
2683.000000	12.260147 
2682.000000	12.261142 
2681.000000	12.264234 
2680.000000	12.267505 
2679.000000	12.270988 
2678.000000	12.279206 
2677.000000	12.296017 
2676.000000	12.317642 
2675.000000	12.334124 
2674.000000	12.339242 
2673.000000	12.337675 
2672.000000	12.340472 
2671.000000	12.353067 
2670.000000	12.368545 
2669.000000	12.373778 
2668.000000	12.362173 
2667.000000	12.339534 
2666.000000	12.318010 
2665.000000	12.306641 
2664.000000	12.307975 
2663.000000	12.319372 
2662.000000	12.333799 
2661.000000	12.341904 
2660.000000	12.338563 
2659.000000	12.328514 
2658.000000	12.323188 
2657.000000	12.331342 
2656.000000	12.353100 
2655.000000	12.380452 
2654.000000	12.401491 
2653.000000	12.407838 
2652.000000	12.402509 
2651.000000	12.397928 
2650.000000	12.400912 
2649.000000	12.402620 
2648.000000	12.390559 
2647.000000	12.368533 
2646.000000	12.355224 
2645.000000	12.362056 
2644.000000	12.381781 
2643.000000	12.401482 
2642.000000	12.417615 
2641.000000	12.432932 
2640.000000	12.446596 
2639.000000	12.454996 
2638.000000	12.457882 
2637.000000	12.457311 
2636.000000	12.453767 
2635.000000	12.448405 
2634.000000	12.445321 
2633.000000	12.446149 
2632.000000	12.446054 
2631.000000	12.440999 
2630.000000	12.435929 
2629.000000	12.439466 
2628.000000	12.452117 
2627.000000	12.465451 
2626.000000	12.472224 
2625.000000	12.472721 
2624.000000	12.471952 
2623.000000	12.474463 
2622.000000	12.480507 
2621.000000	12.483537 
2620.000000	12.473499 
2619.000000	12.447569 
2618.000000	12.416836 
2617.000000	12.398121 
2616.000000	12.399837 
2615.000000	12.418702 
2614.000000	12.447062 
2613.000000	12.477250 
2612.000000	12.499657 
2611.000000	12.504008 
2610.000000	12.486584 
2609.000000	12.454308 
2608.000000	12.420850 
2607.000000	12.399917 
2606.000000	12.400001 
2605.000000	12.420114 
2604.000000	12.448952 
2603.000000	12.471963 
2602.000000	12.482079 
2601.000000	12.482793 
2600.000000	12.480941 
2599.000000	12.479228 
2598.000000	12.476852 
2597.000000	12.474840 
2596.000000	12.477902 
2595.000000	12.490175 
2594.000000	12.509511 
2593.000000	12.527129 
2592.000000	12.534740 
2591.000000	12.532438 
2590.000000	12.528115 
2589.000000	12.528929 
2588.000000	12.535620 
2587.000000	12.545261 
2586.000000	12.555426 
2585.000000	12.563458 
2584.000000	12.565722 
2583.000000	12.561728 
2582.000000	12.556631 
2581.000000	12.555593 
2580.000000	12.557205 
2579.000000	12.556531 
2578.000000	12.553820 
2577.000000	12.555966 
2576.000000	12.568456 
2575.000000	12.588516 
2574.000000	12.607396 
2573.000000	12.618534 
2572.000000	12.623147 
2571.000000	12.627958 
2570.000000	12.636726 
2569.000000	12.644503 
2568.000000	12.642787 
2567.000000	12.630875 
2566.000000	12.618792 
2565.000000	12.616903 
2564.000000	12.625168 
2563.000000	12.634754 
2562.000000	12.637789 
2561.000000	12.633276 
2560.000000	12.625984 
2559.000000	12.622653 
2558.000000	12.627659 
2557.000000	12.639625 
2556.000000	12.652941 
2555.000000	12.663301 
2554.000000	12.669136 
2553.000000	12.667435 
2552.000000	12.654255 
2551.000000	12.633516 
2550.000000	12.619719 
2549.000000	12.624245 
2548.000000	12.640821 
2547.000000	12.651047 
2546.000000	12.643490 
2545.000000	12.621799 
2544.000000	12.595537 
2543.000000	12.570433 
2542.000000	12.548567 
2541.000000	12.531433 
2540.000000	12.518999 
2539.000000	12.508858 
2538.000000	12.498830 
2537.000000	12.487682 
2536.000000	12.471863 
2535.000000	12.445703 
2534.000000	12.408529 
2533.000000	12.369465 
2532.000000	12.341173 
2531.000000	12.328327 
2530.000000	12.323751 
2529.000000	12.315803 
2528.000000	12.298335 
2527.000000	12.273508 
2526.000000	12.246408 
2525.000000	12.218381 
2524.000000	12.186625 
2523.000000	12.150413 
2522.000000	12.116152 
2521.000000	12.093976 
2520.000000	12.088583 
2519.000000	12.094463 
2518.000000	12.100917 
2517.000000	12.100769 
2516.000000	12.093488 
2515.000000	12.081944 
2514.000000	12.069709 
2513.000000	12.061944 
2512.000000	12.064632 
2511.000000	12.078470 
2510.000000	12.094779 
2509.000000	12.102916 
2508.000000	12.103529 
2507.000000	12.110005 
2506.000000	12.133003 
2505.000000	12.166570 
2504.000000	12.194269 
2503.000000	12.207969 
2502.000000	12.216594 
2501.000000	12.236733 
2500.000000	12.278173 
2499.000000	12.337433 
2498.000000	12.399895 
2497.000000	12.447225 
2496.000000	12.468216 
2495.000000	12.466569 
2494.000000	12.456864 
2493.000000	12.451782 
2492.000000	12.454575 
2491.000000	12.462490 
2490.000000	12.472367 
2489.000000	12.481452 
2488.000000	12.487540 
2487.000000	12.491824 
2486.000000	12.499303 
2485.000000	12.514132 
2484.000000	12.536360 
2483.000000	12.563584 
2482.000000	12.591704 
2481.000000	12.612341 
2480.000000	12.614881 
2479.000000	12.596600 
2478.000000	12.569349 
2477.000000	12.551992 
2476.000000	12.555980 
2475.000000	12.579172 
2474.000000	12.611011 
2473.000000	12.640485 
2472.000000	12.660354 
2471.000000	12.667644 
2470.000000	12.662153 
2469.000000	12.645293 
2468.000000	12.621777 
2467.000000	12.601219 
2466.000000	12.593034 
2465.000000	12.596822 
2464.000000	12.600717 
2463.000000	12.592896 
2462.000000	12.573640 
2461.000000	12.553608 
2460.000000	12.541843 
2459.000000	12.538386 
2458.000000	12.537429 
2457.000000	12.533609 
2456.000000	12.524078 
2455.000000	12.507542 
2454.000000	12.484978 
2453.000000	12.462334 
2452.000000	12.449895 
2451.000000	12.454018 
2450.000000	12.467101 
2449.000000	12.469703 
2448.000000	12.448581 
2447.000000	12.412758 
2446.000000	12.386434 
2445.000000	12.384027 
2444.000000	12.396286 
2443.000000	12.402512 
2442.000000	12.391991 
2441.000000	12.370391 
2440.000000	12.349292 
2439.000000	12.334611 
2438.000000	12.324649 
2437.000000	12.315312 
2436.000000	12.305329 
2435.000000	12.296689 
2434.000000	12.290245 
2433.000000	12.281878 
2432.000000	12.265319 
2431.000000	12.239413 
2430.000000	12.210560 
2429.000000	12.186933 
2428.000000	12.171958 
2427.000000	12.163842 
2426.000000	12.158881 
2425.000000	12.153601 
2424.000000	12.145359 
2423.000000	12.132811 
2422.000000	12.115682 
2421.000000	12.094151 
2420.000000	12.070079 
2419.000000	12.048834 
2418.000000	12.036857 
2417.000000	12.035062 
2416.000000	12.035515 
2415.000000	12.026497 
2414.000000	12.002136 
2413.000000	11.968356 
2412.000000	11.939498 
2411.000000	11.926183 
2410.000000	11.923771 
2409.000000	11.914620 
2408.000000	11.885501 
2407.000000	11.842337 
2406.000000	11.804710 
2405.000000	11.786527 
2404.000000	11.785387 
2403.000000	11.789489 
2402.000000	11.789145 
2401.000000	11.780042 
2400.000000	11.760215 
2399.000000	11.728327 
2398.000000	11.685159 
2397.000000	11.636157 
2396.000000	11.591858 
2395.000000	11.562630 
2394.000000	11.549708 
2393.000000	11.543590 
2392.000000	11.534362 
2391.000000	11.521203 
2390.000000	11.508617 
2389.000000	11.497333 
2388.000000	11.485411 
2387.000000	11.475515 
2386.000000	11.472617 
2385.000000	11.474681 
2384.000000	11.474374 
2383.000000	11.471755 
2382.000000	11.476339 
2381.000000	11.491743 
2380.000000	11.505425 
2379.000000	11.500996 
2378.000000	11.474911 
2377.000000	11.430159 
2376.000000	11.364649 
2375.000000	11.278747 
2374.000000	11.192078 
2373.000000	11.134390 
2372.000000	11.114877 
2371.000000	11.115162 
2370.000000	11.114068 
2369.000000	11.103990 
2368.000000	11.088341 
2367.000000	11.082032 
2366.000000	11.101403 
2365.000000	11.120541 
2364.000000	11.078582 
2363.000000	10.979254 
2362.000000	10.899190 
2361.000000	10.879619 
2360.000000	10.860102 
2359.000000	10.749003 
2358.000000	10.571228 
2357.000000	10.417231 
2356.000000	10.329619 
2355.000000	10.291970 
2354.000000	10.260618 
2353.000000	10.203660 
2352.000000	10.100519 
2351.000000	10.011484 
2350.000000	10.056950 
2349.000000	10.304008 
2348.000000	10.724290 
2347.000000	11.131047 
2346.000000	11.294022 
2345.000000	11.139960 
2344.000000	10.842990 
2343.000000	10.608098 
2342.000000	10.451806 
2341.000000	10.339202 
2340.000000	10.254406 
2339.000000	10.202421 
2338.000000	10.168403 
2337.000000	10.139559 
2336.000000	10.109972 
2335.000000	10.085220 
2334.000000	10.060262 
2333.000000	10.040297 
2332.000000	10.013250 
2331.000000	9.970119  
2330.000000	9.915919  
2329.000000	9.853266  
2328.000000	9.809215  
2327.000000	9.770054  
2326.000000	9.723793  
2325.000000	9.650944  
2324.000000	9.556056  
2323.000000	9.471812  
2322.000000	9.413371  
2321.000000	9.389649  
2320.000000	9.380644  
2319.000000	9.380299  
2318.000000	9.384450  
2317.000000	9.401641  
2316.000000	9.434014  
2315.000000	9.474794  
2314.000000	9.510369  
2313.000000	9.527377  
2312.000000	9.526681  
2311.000000	9.513796  
2310.000000	9.497130  
2309.000000	9.473138  
2308.000000	9.439653  
2307.000000	9.399585  
2306.000000	9.367805  
2305.000000	9.357514  
2304.000000	9.369174  
2303.000000	9.389104  
2302.000000	9.399559  
2301.000000	9.390389  
2300.000000	9.364721  
2299.000000	9.330425  
2298.000000	9.296647  
2297.000000	9.266369  
2296.000000	9.243370  
2295.000000	9.226533  
2294.000000	9.214652  
2293.000000	9.200193  
2292.000000	9.175796  
2291.000000	9.136313  
2290.000000	9.086221  
2289.000000	9.036653  
2288.000000	8.998035  
2287.000000	8.972255  
2286.000000	8.953298  
2285.000000	8.935353  
2284.000000	8.917374  
2283.000000	8.901093  
2282.000000	8.884493  
2281.000000	8.863207  
2280.000000	8.834844  
2279.000000	8.802923  
2278.000000	8.772822  
2277.000000	8.748740  
2276.000000	8.731770  
2275.000000	8.719446  
2274.000000	8.706122  
2273.000000	8.685123  
2272.000000	8.654249  
2271.000000	8.617176  
2270.000000	8.580214  
2269.000000	8.547673  
2268.000000	8.520978  
2267.000000	8.500225  
2266.000000	8.484194  
2265.000000	8.468853  
2264.000000	8.449606  
2263.000000	8.424213  
2262.000000	8.394891  
2261.000000	8.365355  
2260.000000	8.336469  
2259.000000	8.305575  
2258.000000	8.269383  
2257.000000	8.230957  
2256.000000	8.200197  
2255.000000	8.185976  
2254.000000	8.184332  
2253.000000	8.178830  
2252.000000	8.156615  
2251.000000	8.123177  
2250.000000	8.098030  
2249.000000	8.094144  
2248.000000	8.105528  
2247.000000	8.114475  
2246.000000	8.108500  
2245.000000	8.087375  
2244.000000	8.057622  
2243.000000	8.024766  
2242.000000	7.992073  
2241.000000	7.963146  
2240.000000	7.942228  
2239.000000	7.930864  
2238.000000	7.924807  
2237.000000	7.915368  
2236.000000	7.895384  
2235.000000	7.865313  
2234.000000	7.833097  
2233.000000	7.806986  
2232.000000	7.788076  
2231.000000	7.770849  
2230.000000	7.750782  
2229.000000	7.729573  
2228.000000	7.711640  
2227.000000	7.697343  
2226.000000	7.682737  
2225.000000	7.666493  
2224.000000	7.653783  
2223.000000	7.650364  
2222.000000	7.653956  
2221.000000	7.654004  
2220.000000	7.640433  
2219.000000	7.611626  
2218.000000	7.574570  
2217.000000	7.539338  
2216.000000	7.513744  
2215.000000	7.500879  
2214.000000	7.499620  
2213.000000	7.506828  
2212.000000	7.518650  
2211.000000	7.530310  
2210.000000	7.537164  
2209.000000	7.537754  
2208.000000	7.533878  
2207.000000	7.525213  
2206.000000	7.506316  
2205.000000	7.473896  
2204.000000	7.436969  
2203.000000	7.413893  
2202.000000	7.415782  
2201.000000	7.435545  
2200.000000	7.455923  
2199.000000	7.465740  
2198.000000	7.465661  
2197.000000	7.461418  
2196.000000	7.456959  
2195.000000	7.453536  
2194.000000	7.449880  
2193.000000	7.441305  
2192.000000	7.422415  
2191.000000	7.393408  
2190.000000	7.361899  
2189.000000	7.336605  
2188.000000	7.320608  
2187.000000	7.312158  
2186.000000	7.309853  
2185.000000	7.313577  
2184.000000	7.320179  
2183.000000	7.321843  
2182.000000	7.312184  
2181.000000	7.294043  
2180.000000	7.278815  
2179.000000	7.275953  
2178.000000	7.282996  
2177.000000	7.287101  
2176.000000	7.277253  
2175.000000	7.254817  
2174.000000	7.231702  
2173.000000	7.218585  
2172.000000	7.216102  
2171.000000	7.218038  
2170.000000	7.221142  
2169.000000	7.228221  
2168.000000	7.240362  
2167.000000	7.249916  
2166.000000	7.246352  
2165.000000	7.229026  
2164.000000	7.209632  
2163.000000	7.200255  
2162.000000	7.202292  
2161.000000	7.208772  
2160.000000	7.213379  
2159.000000	7.213770  
2158.000000	7.209888  
2157.000000	7.204113  
2156.000000	7.200688  
2155.000000	7.200034  
2154.000000	7.196303  
2153.000000	7.186659  
2152.000000	7.179847  
2151.000000	7.186084  
2150.000000	7.198305  
2149.000000	7.194278  
2148.000000	7.163628  
2147.000000	7.125423  
2146.000000	7.108290  
2145.000000	7.116152  
2144.000000	7.125708  
2143.000000	7.116616  
2142.000000	7.092082  
2141.000000	7.069013  
2140.000000	7.058112  
2139.000000	7.058219  
2138.000000	7.065053  
2137.000000	7.078305  
2136.000000	7.098274  
2135.000000	7.118934  
2134.000000	7.128830  
2133.000000	7.121176  
2132.000000	7.101833  
2131.000000	7.084269  
2130.000000	7.076306  
2129.000000	7.074826  
2128.000000	7.073599  
2127.000000	7.071065  
2126.000000	7.067611  
2125.000000	7.060677  
2124.000000	7.048878  
2123.000000	7.038619  
2122.000000	7.039808  
2121.000000	7.054113  
2120.000000	7.071967  
2119.000000	7.082678  
2118.000000	7.084579  
2117.000000	7.084099  
2116.000000	7.086957  
2115.000000	7.091142  
2114.000000	7.087892  
2113.000000	7.070743  
2112.000000	7.044864  
2111.000000	7.024968  
2110.000000	7.021013  
2109.000000	7.027985  
2108.000000	7.033642  
2107.000000	7.034376  
2106.000000	7.038282  
2105.000000	7.053325  
2104.000000	7.077732  
2103.000000	7.101533  
2102.000000	7.111620  
2101.000000	7.096009  
2100.000000	7.052591  
2099.000000	6.998773  
2098.000000	6.965706  
2097.000000	6.974122  
2096.000000	7.015598  
2095.000000	7.060848  
2094.000000	7.085343  
2093.000000	7.084879  
2092.000000	7.070702  
2091.000000	7.056472  
2090.000000	7.049948  
2089.000000	7.051226  
2088.000000	7.055481  
2087.000000	7.058720  
2086.000000	7.061822  
2085.000000	7.067667  
2084.000000	7.074298  
2083.000000	7.073968  
2082.000000	7.061325  
2081.000000	7.041250  
2080.000000	7.025823  
2079.000000	7.022809  
2078.000000	7.028417  
2077.000000	7.032061  
2076.000000	7.027424  
2075.000000	7.017341  
2074.000000	7.008583  
2073.000000	7.004299  
2072.000000	7.002897  
2071.000000	7.002678  
2070.000000	7.004162  
2069.000000	7.007535  
2068.000000	7.010457  
2067.000000	7.009966  
2066.000000	7.005412  
2065.000000	6.998867  
2064.000000	6.993118  
2063.000000	6.989193  
2062.000000	6.985360  
2061.000000	6.978180  
2060.000000	6.965549  
2059.000000	6.949936  
2058.000000	6.937776  
2057.000000	6.934353  
2056.000000	6.939395  
2055.000000	6.948100  
2054.000000	6.956103  
2053.000000	6.963362  
2052.000000	6.974263  
2051.000000	6.993828  
2050.000000	7.020749  
2049.000000	7.042967  
2048.000000	7.044462  
2047.000000	7.020709  
2046.000000	6.985900  
2045.000000	6.960978  
2044.000000	6.953891  
2043.000000	6.954663  
2042.000000	6.949959  
2041.000000	6.937594  
2040.000000	6.923934  
2039.000000	6.912285  
2038.000000	6.901008  
2037.000000	6.891372  
2036.000000	6.889537  
2035.000000	6.897834  
2034.000000	6.908612  
2033.000000	6.910773  
2032.000000	6.900673  
2031.000000	6.883878  
2030.000000	6.868266  
2029.000000	6.858824  
2028.000000	6.857662  
2027.000000	6.864255  
2026.000000	6.874025  
2025.000000	6.880037  
2024.000000	6.878236  
2023.000000	6.870341  
2022.000000	6.860092  
2021.000000	6.848863  
2020.000000	6.836776  
2019.000000	6.826207  
2018.000000	6.821293  
2017.000000	6.823620  
2016.000000	6.829967  
2015.000000	6.835370  
2014.000000	6.837422  
2013.000000	6.837077  
2012.000000	6.836994  
2011.000000	6.840171  
2010.000000	6.849021  
2009.000000	6.863582  
2008.000000	6.878913  
2007.000000	6.885097  
2006.000000	6.873579  
2005.000000	6.846813  
2004.000000	6.819581  
2003.000000	6.806156  
2002.000000	6.805046  
2001.000000	6.801228  
2000.000000	6.785761  
1999.000000	6.768677  
1998.000000	6.767989  
1997.000000	6.787275  
1996.000000	6.811265  
1995.000000	6.823138  
1994.000000	6.819981  
1993.000000	6.810847  
1992.000000	6.804406  
1991.000000	6.801707  
1990.000000	6.800836  
1989.000000	6.802799  
1988.000000	6.809630  
1987.000000	6.820841  
1986.000000	6.834030  
1985.000000	6.846384  
1984.000000	6.853881  
1983.000000	6.851703  
1982.000000	6.838380  
1981.000000	6.818921  
1980.000000	6.801882  
1979.000000	6.792977  
1978.000000	6.792428  
1977.000000	6.796373  
1976.000000	6.799897  
1975.000000	6.799375  
1974.000000	6.794125  
1973.000000	6.786410  
1972.000000	6.779975  
1971.000000	6.778955  
1970.000000	6.787677  
1969.000000	6.808716  
1968.000000	6.837705  
1967.000000	6.860577  
1966.000000	6.861570  
1965.000000	6.836812  
1964.000000	6.797904  
1963.000000	6.762769  
1962.000000	6.743868  
1961.000000	6.742486  
1960.000000	6.751489  
1959.000000	6.762642  
1958.000000	6.771910  
1957.000000	6.779493  
1956.000000	6.785909  
1955.000000	6.788528  
1954.000000	6.783582  
1953.000000	6.772156  
1952.000000	6.761920  
1951.000000	6.760462  
1950.000000	6.766551  
1949.000000	6.771611  
1948.000000	6.768915  
1947.000000	6.758834  
1946.000000	6.746346  
1945.000000	6.736886  
1944.000000	6.735309  
1943.000000	6.744204  
1942.000000	6.759188  
1941.000000	6.769587  
1940.000000	6.768827  
1939.000000	6.759846  
1938.000000	6.748182  
1937.000000	6.735445  
1936.000000	6.720992  
1935.000000	6.707026  
1934.000000	6.698277  
1933.000000	6.695949  
1932.000000	6.696088  
1931.000000	6.695920  
1930.000000	6.698079  
1929.000000	6.707179  
1928.000000	6.721402  
1927.000000	6.731370  
1926.000000	6.730201  
1925.000000	6.721288  
1924.000000	6.715501  
1923.000000	6.718040  
1922.000000	6.722197  
1921.000000	6.720138  
1920.000000	6.715400  
1919.000000	6.717073  
1918.000000	6.726166  
1917.000000	6.733516  
1916.000000	6.731715  
1915.000000	6.723728  
1914.000000	6.716620  
1913.000000	6.711929  
1912.000000	6.706747  
1911.000000	6.700271  
1910.000000	6.696436  
1909.000000	6.700879  
1908.000000	6.714460  
1907.000000	6.731498  
1906.000000	6.743544  
1905.000000	6.743599  
1904.000000	6.732555  
1903.000000	6.718822  
1902.000000	6.710842  
1901.000000	6.709126  
1900.000000	6.705742  
1899.000000	6.693994  
1898.000000	6.677840  
1897.000000	6.668424  
1896.000000	6.672060  
1895.000000	6.681883  
1894.000000	6.685407  
1893.000000	6.679151  
1892.000000	6.670379  
1891.000000	6.665935  
1890.000000	6.664978  
1889.000000	6.663112  
1888.000000	6.658373  
1887.000000	6.652438  
1886.000000	6.648736  
1885.000000	6.649000  
1884.000000	6.652722  
1883.000000	6.657773  
1882.000000	6.661092  
1881.000000	6.660672  
1880.000000	6.655904  
1879.000000	6.647625  
1878.000000	6.639304  
1877.000000	6.635934  
1876.000000	6.640190  
1875.000000	6.648964  
1874.000000	6.655006  
1873.000000	6.654510  
1872.000000	6.651989  
1871.000000	6.655821  
1870.000000	6.668782  
1869.000000	6.682795  
1868.000000	6.685133  
1867.000000	6.670562  
1866.000000	6.649090  
1865.000000	6.637980  
1864.000000	6.643493  
1863.000000	6.654628  
1862.000000	6.655322  
1861.000000	6.641975  
1860.000000	6.624868  
1859.000000	6.611673  
1858.000000	6.598934  
1857.000000	6.582724  
1856.000000	6.567609  
1855.000000	6.558947  
1854.000000	6.554587  
1853.000000	6.552457  
1852.000000	6.559958  
1851.000000	6.585818  
1850.000000	6.625517  
1849.000000	6.657302  
1848.000000	6.659884  
1847.000000	6.630016  
1846.000000	6.581201  
1845.000000	6.535997  
1844.000000	6.519079  
1843.000000	6.533841  
1842.000000	6.556818  
1841.000000	6.570176  
1840.000000	6.569996  
1839.000000	6.559414  
1838.000000	6.547461  
1837.000000	6.543180  
1836.000000	6.548824  
1835.000000	6.558372  
1834.000000	6.563384  
1833.000000	6.559704  
1832.000000	6.548481  
1831.000000	6.532950  
1830.000000	6.517268  
1829.000000	6.501187  
1828.000000	6.478705  
1827.000000	6.454816  
1826.000000	6.445243  
1825.000000	6.457126  
1824.000000	6.479314  
1823.000000	6.492868  
1822.000000	6.491343  
1821.000000	6.482813  
1820.000000	6.479197  
1819.000000	6.487267  
1818.000000	6.502518  
1817.000000	6.512590  
1816.000000	6.509700  
1815.000000	6.495363  
1814.000000	6.475618  
1813.000000	6.457063  
1812.000000	6.446256  
1811.000000	6.446318  
1810.000000	6.449162  
1809.000000	6.443598  
1808.000000	6.431086  
1807.000000	6.422706  
1806.000000	6.425135  
1805.000000	6.435877  
1804.000000	6.449248  
1803.000000	6.460607  
1802.000000	6.464852  
1801.000000	6.458005  
1800.000000	6.443943  
1799.000000	6.433612  
1798.000000	6.430910  
1797.000000	6.428574  
1796.000000	6.415742  
1795.000000	6.389230  
1794.000000	6.358792  
1793.000000	6.343225  
1792.000000	6.353791  
1791.000000	6.376292  
1790.000000	6.388494  
1789.000000	6.389410  
1788.000000	6.387641  
1787.000000	6.385612  
1786.000000	6.382420  
1785.000000	6.380729  
1784.000000	6.384242  
1783.000000	6.390942  
1782.000000	6.397331  
1781.000000	6.403785  
1780.000000	6.410443  
1779.000000	6.415069  
1778.000000	6.414843  
1777.000000	6.412070  
1776.000000	6.408361  
1775.000000	6.399659  
1774.000000	6.380367  
1773.000000	6.354273  
1772.000000	6.344319  
1771.000000	6.359512  
1770.000000	6.375427  
1769.000000	6.378570  
1768.000000	6.373304  
1767.000000	6.367420  
1766.000000	6.363684  
1765.000000	6.358807  
1764.000000	6.349546  
1763.000000	6.336334  
1762.000000	6.324715  
1761.000000	6.318338  
1760.000000	6.312462  
1759.000000	6.307758  
1758.000000	6.309219  
1757.000000	6.317697  
1756.000000	6.327822  
1755.000000	6.333738  
1754.000000	6.334842  
1753.000000	6.329324  
1752.000000	6.306560  
1751.000000	6.263873  
1750.000000	6.222669  
1749.000000	6.205512  
1748.000000	6.218746  
1747.000000	6.253909  
1746.000000	6.296473  
1745.000000	6.331575  
1744.000000	6.345411  
1743.000000	6.334871  
1742.000000	6.312210  
1741.000000	6.295119  
1740.000000	6.293862  
1739.000000	6.302851  
1738.000000	6.304542  
1737.000000	6.291698  
1736.000000	6.267370  
1735.000000	6.227392  
1734.000000	6.187480  
1733.000000	6.181226  
1732.000000	6.192033  
1731.000000	6.203311  
1730.000000	6.205592  
1729.000000	6.189181  
1728.000000	6.159734  
1727.000000	6.131870  
1726.000000	6.114777  
1725.000000	6.106640  
1724.000000	6.102519  
1723.000000	6.102163  
1722.000000	6.104459  
1721.000000	6.106236  
1720.000000	6.104343  
1719.000000	6.093251  
1718.000000	6.071678  
1717.000000	6.058044  
1716.000000	6.062021  
1715.000000	6.071283  
1714.000000	6.074482  
1713.000000	6.066186  
1712.000000	6.051574  
1711.000000	6.039290  
1710.000000	6.032007  
1709.000000	6.028550  
1708.000000	6.029800  
1707.000000	6.036989  
1706.000000	6.044442  
1705.000000	6.043918  
1704.000000	6.036434  
1703.000000	6.033253  
1702.000000	6.042639  
1701.000000	6.039773  
1700.000000	6.005111  
1699.000000	5.966499  
1698.000000	5.941130  
1697.000000	5.949052  
1696.000000	5.979832  
1695.000000	5.995457  
1694.000000	5.984046  
1693.000000	5.970166  
1692.000000	5.973246  
1691.000000	5.987157  
1690.000000	5.995999  
1689.000000	5.993295  
1688.000000	5.984205  
1687.000000	5.977598  
1686.000000	5.978484  
1685.000000	5.975531  
1684.000000	5.971943  
1683.000000	5.978061  
1682.000000	5.969565  
1681.000000	5.960440  
1680.000000	5.958695  
1679.000000	5.956214  
1678.000000	5.950191  
1677.000000	5.940320  
1676.000000	5.920732  
1675.000000	5.893159  
1674.000000	5.871001  
1673.000000	5.858081  
1672.000000	5.854241  
1671.000000	5.857433  
1670.000000	5.862192  
1669.000000	5.863564  
1668.000000	5.852387  
1667.000000	5.833448  
1666.000000	5.825787  
1665.000000	5.836421  
1664.000000	5.852805  
1663.000000	5.855771  
1662.000000	5.843572  
1661.000000	5.826473  
1660.000000	5.806441  
1659.000000	5.784034  
1658.000000	5.766129  
1657.000000	5.766219  
1656.000000	5.791530  
1655.000000	5.834831  
1654.000000	5.838260  
1653.000000	5.760621  
1652.000000	5.672292  
1651.000000	5.585905  
1650.000000	5.534754  
1649.000000	5.536583  
1648.000000	5.594109  
1647.000000	5.685215  
1646.000000	5.745415  
1645.000000	5.743354  
1644.000000	5.718488  
1643.000000	5.705980  
1642.000000	5.705189  
1641.000000	5.707257  
1640.000000	5.712408  
1639.000000	5.726346  
1638.000000	5.748817  
1637.000000	5.763939  
1636.000000	5.752433  
1635.000000	5.725346  
1634.000000	5.697549  
1633.000000	5.675854  
1632.000000	5.668168  
1631.000000	5.667683  
1630.000000	5.666342  
1629.000000	5.664629  
1628.000000	5.666241  
1627.000000	5.670696  
1626.000000	5.679148  
1625.000000	5.698603  
1624.000000	5.722599  
1623.000000	5.723155  
1622.000000	5.686522  
1621.000000	5.634988  
1620.000000	5.596301  
1619.000000	5.577611  
1618.000000	5.567786  
1617.000000	5.563082  
1616.000000	5.573344  
1615.000000	5.583839  
1614.000000	5.575531  
1613.000000	5.551424  
1612.000000	5.520496  
1611.000000	5.492039  
1610.000000	5.474849  
1609.000000	5.472762  
1608.000000	5.479802  
1607.000000	5.482856  
1606.000000	5.474122  
1605.000000	5.458725  
1604.000000	5.442964  
1603.000000	5.422747  
1602.000000	5.392005  
1601.000000	5.362919  
1600.000000	5.361720  
1599.000000	5.396367  
1598.000000	5.438783  
1597.000000	5.450181  
1596.000000	5.422228  
1595.000000	5.382938  
1594.000000	5.361785  
1593.000000	5.361432  
1592.000000	5.368077  
1591.000000	5.372163  
1590.000000	5.370616  
1589.000000	5.361381  
1588.000000	5.343144  
1587.000000	5.317678  
1586.000000	5.289112  
1585.000000	5.263575  
1584.000000	5.248447  
1583.000000	5.248105  
1582.000000	5.258597  
1581.000000	5.267377  
1580.000000	5.264139  
1579.000000	5.248680  
1578.000000	5.228041  
1577.000000	5.209866  
1576.000000	5.203828  
1575.000000	5.206592  
1574.000000	5.203267  
1573.000000	5.197347  
1572.000000	5.194919  
1571.000000	5.189964  
1570.000000	5.172428  
1569.000000	5.147723  
1568.000000	5.129358  
1567.000000	5.129536  
1566.000000	5.152559  
1565.000000	5.182313  
1564.000000	5.195588  
1563.000000	5.194923  
1562.000000	5.195806  
1561.000000	5.208706  
1560.000000	5.172605  
1559.000000	5.050928  
1558.000000	5.000156  
1557.000000	5.002062  
1556.000000	5.002899  
1555.000000	5.001866  
1554.000000	4.992157  
1553.000000	4.990839  
1552.000000	5.018833  
1551.000000	5.080343  
1550.000000	5.144065  
1549.000000	5.165769  
1548.000000	5.139180  
1547.000000	5.093455  
1546.000000	5.056790  
1545.000000	5.038894  
1544.000000	5.038509  
1543.000000	5.056542  
1542.000000	5.099158  
1541.000000	5.156350  
1540.000000	5.199483  
1539.000000	5.214084  
1538.000000	5.206480  
1537.000000	5.204226  
1536.000000	5.221511  
1535.000000	5.251193  
1534.000000	5.285845  
1533.000000	5.322600  
1532.000000	5.349295  
1531.000000	5.360070  
1530.000000	5.366674  
1529.000000	5.378497  
1528.000000	5.397132  
1527.000000	5.416648  
1526.000000	5.427036  
1525.000000	5.426572  
1524.000000	5.427823  
1523.000000	5.447774  
1522.000000	5.489856  
1521.000000	5.533459  
1520.000000	5.555921  
1519.000000	5.566591  
1518.000000	5.587458  
1517.000000	5.618533  
1516.000000	5.648403  
1515.000000	5.668957  
1514.000000	5.682443  
1513.000000	5.691093  
1512.000000	5.692877  
1511.000000	5.690199  
1510.000000	5.680854  
1509.000000	5.654691  
1508.000000	5.621294  
1507.000000	5.680522  
1506.000000	5.844793  
1505.000000	5.950085  
1504.000000	5.974587  
1503.000000	5.978162  
1502.000000	5.975413  
1501.000000	5.963113  
1500.000000	5.937883  
1499.000000	5.911973  
1498.000000	5.905515  
1497.000000	5.930862  
1496.000000	5.977206  
1495.000000	6.020630  
1494.000000	6.051879  
1493.000000	6.076204  
1492.000000	6.099154  
1491.000000	6.126941  
1490.000000	6.164464  
1489.000000	6.203078  
1488.000000	6.226033  
1487.000000	6.229538  
1486.000000	6.217700  
1485.000000	6.197392  
1484.000000	6.177739  
1483.000000	6.166490  
1482.000000	6.165330  
1481.000000	6.165522  
1480.000000	6.156469  
1479.000000	6.135405  
1478.000000	6.107383  
1477.000000	6.080211  
1476.000000	6.061968  
1475.000000	6.052950  
1474.000000	6.045670  
1473.000000	6.043769  
1472.000000	6.060774  
1471.000000	6.086239  
1470.000000	6.099305  
1469.000000	6.098511  
1468.000000	6.090754  
1467.000000	6.083172  
1466.000000	6.075266  
1465.000000	6.060081  
1464.000000	6.038431  
1463.000000	6.021238  
1462.000000	6.017383  
1461.000000	6.026551  
1460.000000	6.039460  
1459.000000	6.042803  
1458.000000	6.021987  
1457.000000	5.983871  
1456.000000	5.954215  
1455.000000	5.936572  
1454.000000	5.927624  
1453.000000	5.913238  
1452.000000	5.881294  
1451.000000	5.840307  
1450.000000	5.804521  
1449.000000	5.777779  
1448.000000	5.760599  
1447.000000	5.756063  
1446.000000	5.760535  
1445.000000	5.764475  
1444.000000	5.761615  
1443.000000	5.755112  
1442.000000	5.751657  
1441.000000	5.753857  
1440.000000	5.761261  
1439.000000	5.775805  
1438.000000	5.795527  
1437.000000	5.804504  
1436.000000	5.791820  
1435.000000	5.768757  
1434.000000	5.748538  
1433.000000	5.729293  
1432.000000	5.701839  
1431.000000	5.665880  
1430.000000	5.632105  
1429.000000	5.606922  
1428.000000	5.590810  
1427.000000	5.586343  
1426.000000	5.597204  
1425.000000	5.618591  
1424.000000	5.634134  
1423.000000	5.631394  
1422.000000	5.610592  
1421.000000	5.577235  
1420.000000	5.536624  
1419.000000	5.504270  
1418.000000	5.490043  
1417.000000	5.477581  
1416.000000	5.458101  
1415.000000	5.438358  
1414.000000	5.421816  
1413.000000	5.404265  
1412.000000	5.381256  
1411.000000	5.354883  
1410.000000	5.325955  
1409.000000	5.288256  
1408.000000	5.240374  
1407.000000	5.191508  
1406.000000	5.148251  
1405.000000	5.104230  
1404.000000	5.053314  
1403.000000	5.003747  
1402.000000	4.961892  
1401.000000	4.917459  
1400.000000	4.858604  
1399.000000	4.801547  
1398.000000	4.778463  
1397.000000	4.793355  
1396.000000	4.822123  
1395.000000	4.841273  
1394.000000	4.847217  
1393.000000	4.848583  
1392.000000	4.848930  
1391.000000	4.845772  
1390.000000	4.834986  
1389.000000	4.814697  
1388.000000	4.788982  
1387.000000	4.769512  
1386.000000	4.765437  
1385.000000	4.774182  
1384.000000	4.786773  
1383.000000	4.794063  
1382.000000	4.790030  
1381.000000	4.774624  
1380.000000	4.751807  
1379.000000	4.724848  
1378.000000	4.696292  
1377.000000	4.671266  
1376.000000	4.657837  
1375.000000	4.660694  
1374.000000	4.671466  
1373.000000	4.671902  
1372.000000	4.653897  
1371.000000	4.624810  
1370.000000	4.594063  
1369.000000	4.565541  
1368.000000	4.537742  
1367.000000	4.507721  
1366.000000	4.475583  
1365.000000	4.447721  
1364.000000	4.435881  
1363.000000	4.446538  
1362.000000	4.464774  
1361.000000	4.463322  
1360.000000	4.431395  
1359.000000	4.379208  
1358.000000	4.323903  
1357.000000	4.279421  
1356.000000	4.250427  
1355.000000	4.231455  
1354.000000	4.214700  
1353.000000	4.199992  
1352.000000	4.191933  
1351.000000	4.184591  
1350.000000	4.158235  
1349.000000	4.100785  
1348.000000	4.028093  
1347.000000	3.972492  
1346.000000	3.949420  
1345.000000	3.945898  
1344.000000	3.940937  
1343.000000	3.922748  
1342.000000	3.885605  
1341.000000	3.827789  
1340.000000	3.762808  
1339.000000	3.719054  
1338.000000	3.711073  
1337.000000	3.724980  
1336.000000	3.739121  
1335.000000	3.742148  
1334.000000	3.732293  
1333.000000	3.711691  
1332.000000	3.684827  
1331.000000	3.657922  
1330.000000	3.636124  
1329.000000	3.622448  
1328.000000	3.618005  
1327.000000	3.618669  
1326.000000	3.613934  
1325.000000	3.595821  
1324.000000	3.567867  
1323.000000	3.539979  
1322.000000	3.516549  
1321.000000	3.497048  
1320.000000	3.485268  
1319.000000	3.486037  
1318.000000	3.492232  
1317.000000	3.488763  
1316.000000	3.471491  
1315.000000	3.450198  
1314.000000	3.432054  
1313.000000	3.412514  
1312.000000	3.385193  
1311.000000	3.350320  
1310.000000	3.310020  
1309.000000	3.266774  
1308.000000	3.229523  
1307.000000	3.208903  
1306.000000	3.202511  
1305.000000	3.196120  
1304.000000	3.181677  
1303.000000	3.160960  
1302.000000	3.129386  
1301.000000	3.074595  
1300.000000	3.000085  
1299.000000	2.935416  
1298.000000	2.908538  
1297.000000	2.914549  
1296.000000	2.924418  
1295.000000	2.919376  
1294.000000	2.902817  
1293.000000	2.883715  
1292.000000	2.864873  
1291.000000	2.845792  
1290.000000	2.824628  
1289.000000	2.797484  
1288.000000	2.763352  
1287.000000	2.728425  
1286.000000	2.699528  
1285.000000	2.676173  
1284.000000	2.654394  
1283.000000	2.633893  
1282.000000	2.615795  
1281.000000	2.598040  
1280.000000	2.578562  
1279.000000	2.558752  
1278.000000	2.538928  
1277.000000	2.515702  
1276.000000	2.489009  
1275.000000	2.465311  
1274.000000	2.447580  
1273.000000	2.429144  
1272.000000	2.406261  
1271.000000	2.391250  
1270.000000	2.402169  
1269.000000	2.440443  
1268.000000	2.486094  
1267.000000	2.514440  
1266.000000	2.514284  
1265.000000	2.492958  
1264.000000	2.467814  
1263.000000	2.451574  
1262.000000	2.443742  
1261.000000	2.437363  
1260.000000	2.432327  
1259.000000	2.435178  
1258.000000	2.447027  
1257.000000	2.462623  
1256.000000	2.481116  
1255.000000	2.505068  
1254.000000	2.530026  
1253.000000	2.554032  
1252.000000	2.600905  
1251.000000	2.707073  
1250.000000	2.865863  
1249.000000	3.005136  
1248.000000	3.049638  
1247.000000	3.001188  
1246.000000	2.934308  
1245.000000	2.915926  
1244.000000	2.954547  
1243.000000	3.026118  
1242.000000	3.115985  
1241.000000	3.219751  
1240.000000	3.325966  
1239.000000	3.422751  
1238.000000	3.515148  
1237.000000	3.618701  
1236.000000	3.737594  
1235.000000	3.859282  
1234.000000	3.969884  
1233.000000	4.066862  
1232.000000	4.155939  
1231.000000	4.243513  
1230.000000	4.333659  
1229.000000	4.426868  
1228.000000	4.518744  
1227.000000	4.600970  
1226.000000	4.665979  
1225.000000	4.713416  
1224.000000	4.753044  
1223.000000	4.798025  
1222.000000	4.851579  
1221.000000	4.901749  
1220.000000	4.932353  
1219.000000	4.937759  
1218.000000	4.924419  
1217.000000	4.901598  
1216.000000	4.877379  
1215.000000	4.860667  
1214.000000	4.856135  
1213.000000	4.856365  
1212.000000	4.849019  
1211.000000	4.833766  
1210.000000	4.822288  
1209.000000	4.819772  
1208.000000	4.817854  
1207.000000	4.809548  
1206.000000	4.800095  
1205.000000	4.796692  
1204.000000	4.795314  
1203.000000	4.784554  
1202.000000	4.758119  
1201.000000	4.719214  
1200.000000	4.677882  
1199.000000	4.648799  
1198.000000	4.642526  
1197.000000	4.651374  
1196.000000	4.653856  
1195.000000	4.638571  
1194.000000	4.616388  
1193.000000	4.605864  
1192.000000	4.612408  
1191.000000	4.626634  
1190.000000	4.637029  
1189.000000	4.636473  
1188.000000	4.621629  
1187.000000	4.597014  
1186.000000	4.577232  
1185.000000	4.575064  
1184.000000	4.586220  
1183.000000	4.590829  
1182.000000	4.573603  
1181.000000	4.540828  
1180.000000	4.513797  
1179.000000	4.506004  
1178.000000	4.510144  
1177.000000	4.510760  
1176.000000	4.507376  
1175.000000	4.517039  
1174.000000	4.550586  
1173.000000	4.594113  
1172.000000	4.622668  
1171.000000	4.628892  
1170.000000	4.629027  
1169.000000	4.641823  
1168.000000	4.671060  
1167.000000	4.709225  
1166.000000	4.747820  
1165.000000	4.780506  
1164.000000	4.804580  
1163.000000	4.824774  
1162.000000	4.850409  
1161.000000	4.885465  
1160.000000	4.927597  
1159.000000	4.978860  
1158.000000	5.047449  
1157.000000	5.134052  
1156.000000	5.227134  
1155.000000	5.319420  
1154.000000	5.420625  
1153.000000	5.545126  
1152.000000	5.694010  
1151.000000	5.858690  
1150.000000	6.034328  
1149.000000	6.218632  
1148.000000	6.405149  
1147.000000	6.592578  
1146.000000	6.796716  
1145.000000	7.036883  
1144.000000	7.312301  
1143.000000	7.606689  
1142.000000	7.913947  
1141.000000	8.242500  
1140.000000	8.592851  
1139.000000	8.949169  
1138.000000	9.299761  
1137.000000	9.650560  
1136.000000	10.011265 
1135.000000	10.383206 
1134.000000	10.770053 
1133.000000	11.187506 
1132.000000	11.652302 
1131.000000	12.170875 
1130.000000	12.745301 
1129.000000	13.378881 
1128.000000	14.067584 
1127.000000	14.796240 
1126.000000	15.550801 
1125.000000	16.323877 
1124.000000	17.103471 
1123.000000	17.873326 
1122.000000	18.634239 
1121.000000	19.408063 
1120.000000	20.208458 
1119.000000	21.021999 
1118.000000	21.826990 
1117.000000	22.613365 
1116.000000	23.374997 
1115.000000	24.104784 
1114.000000	24.811791 
1113.000000	25.522654 
1112.000000	26.250225 
1111.000000	26.977304 
1110.000000	27.682999 
1109.000000	28.365027 
1108.000000	29.026272 
1107.000000	29.663710 
1106.000000	30.281576 
1105.000000	30.888725 
1104.000000	31.470723 
1103.000000	31.997197 
1102.000000	32.475650 
1101.000000	32.961548 
1100.000000	33.488221 
1099.000000	34.014076 
1098.000000	34.470544 
1097.000000	34.841416 
1096.000000	35.163139 
1095.000000	35.468310 
1094.000000	35.759023 
1093.000000	36.023688 
1092.000000	36.253946 
1091.000000	36.451857 
1090.000000	36.636384 
1089.000000	36.832387 
1088.000000	37.041037 
1087.000000	37.234345 
1086.000000	37.389268 
1085.000000	37.512321 
1084.000000	37.623934 
1083.000000	37.739487 
1082.000000	37.873907 
1081.000000	38.041196 
1080.000000	38.235844 
1079.000000	38.433069 
1078.000000	38.618133 
1077.000000	38.796683 
1076.000000	38.968553 
1075.000000	39.116554 
1074.000000	39.234203 
1073.000000	39.340276 
1072.000000	39.450889 
1071.000000	39.559015 
1070.000000	39.654969 
1069.000000	39.742455 
1068.000000	39.817854 
1067.000000	39.859549 
1066.000000	39.860701 
1065.000000	39.852562 
1064.000000	39.872341 
1063.000000	39.922721 
1062.000000	39.980706 
1061.000000	40.028453 
1060.000000	40.056248 
1059.000000	40.054726 
1058.000000	40.029159 
1057.000000	40.007605 
1056.000000	40.010767 
1055.000000	40.024567 
1054.000000	40.025400 
1053.000000	40.021353 
1052.000000	40.038901 
1051.000000	40.071348 
1050.000000	40.071606 
1049.000000	40.004476 
1048.000000	39.883866 
1047.000000	39.749658 
1046.000000	39.624350 
1045.000000	39.499803 
1044.000000	39.354760 
1043.000000	39.178391 
1042.000000	38.980934 
1041.000000	38.782086 
1040.000000	38.587319 
1039.000000	38.381287 
1038.000000	38.150544 
1037.000000	37.906727 
1036.000000	37.677950 
1035.000000	37.480472 
1034.000000	37.307702 
1033.000000	37.146183 
1032.000000	36.994412 
1031.000000	36.864234 
1030.000000	36.769181 
1029.000000	36.713983 
1028.000000	36.693747 
1027.000000	36.702317 
1026.000000	36.740311 
1025.000000	36.812780 
1024.000000	36.920288 
1023.000000	37.057394 
1022.000000	37.220543 
1021.000000	37.410671 
1020.000000	37.623914 
1019.000000	37.845397 
1018.000000	38.058032 
1017.000000	38.254226 
1016.000000	38.434779 
1015.000000	38.601213 
1014.000000	38.756466 
1013.000000	38.910334 
1012.000000	39.074513 
1011.000000	39.248374 
1010.000000	39.413665 
1009.000000	39.548452 
1008.000000	39.648577 
1007.000000	39.735218 
1006.000000	39.840014 
1005.000000	39.982056 
1004.000000	40.159483 
1003.000000	40.359092 
1002.000000	40.563823 
1001.000000	40.747431 
1000.000000	40.875296 
999.000000	 40.927250 
998.000000	 40.919216 
997.000000	 40.891462 
996.000000	 40.874045 
995.000000	 40.868125 
994.000000	 40.854940 
993.000000	 40.810752 
992.000000	 40.716464 
991.000000	 40.570730 
990.000000	 40.398910 
989.000000	 40.235301 
988.000000	 40.089973 
987.000000	 39.944771 
986.000000	 39.787828 
985.000000	 39.638723 
984.000000	 39.529650 
983.000000	 39.473106 
982.000000	 39.462622 
981.000000	 39.500862 
980.000000	 39.612553 
979.000000	 39.827044 
978.000000	 40.156063 
977.000000	 40.590156 
976.000000	 41.110472 
975.000000	 41.701333 
974.000000	 42.355656 
973.000000	 43.072257 
972.000000	 43.847944 
971.000000	 44.670614 
970.000000	 45.517082 
969.000000	 46.354018 
968.000000	 47.142901 
967.000000	 47.853170 
966.000000	 48.475912 
965.000000	 49.020832 
964.000000	 49.497940 
963.000000	 49.907966 
962.000000	 50.250870 
961.000000	 50.531990 
960.000000	 50.754654 
959.000000	 50.918487 
958.000000	 51.032237 
957.000000	 51.115343 
956.000000	 51.174949 
955.000000	 51.192230 
954.000000	 51.147461 
953.000000	 51.052578 
952.000000	 50.941783 
951.000000	 50.830722 
950.000000	 50.699658 
949.000000	 50.520035 
948.000000	 50.286942 
947.000000	 50.020478 
946.000000	 49.742335 
945.000000	 49.456014 
944.000000	 49.146761 
943.000000	 48.798786 
942.000000	 48.413672 
941.000000	 48.010144 
940.000000	 47.603104 
939.000000	 47.185839 
938.000000	 46.737311 
937.000000	 46.243869 
936.000000	 45.708175 
935.000000	 45.140612 
934.000000	 44.550690 
933.000000	 43.946271 
932.000000	 43.331897 
931.000000	 42.703998 
930.000000	 42.053032 
929.000000	 41.373985 
928.000000	 40.672245 
927.000000	 39.957360 
926.000000	 39.233171 
925.000000	 38.495551 
924.000000	 37.738401 
923.000000	 36.961246 
922.000000	 36.172485 
921.000000	 35.385742 
920.000000	 34.612094 
919.000000	 33.854894 
918.000000	 33.110974 
917.000000	 32.376093 
916.000000	 31.651337 
915.000000	 30.948287 
914.000000	 30.287103 
913.000000	 29.683111 
912.000000	 29.132980 
911.000000	 28.619518 
910.000000	 28.133834 
909.000000	 27.688397 
908.000000	 27.303688 
907.000000	 26.986762 
906.000000	 26.730352 
905.000000	 26.530703 
904.000000	 26.398435 
903.000000	 26.351450 
902.000000	 26.402153 
901.000000	 26.548994 
900.000000	 26.772886 
899.000000	 27.043476 
898.000000	 27.340786 
897.000000	 27.673173 
896.000000	 28.062584 
895.000000	 28.507915 
894.000000	 28.974133 
893.000000	 29.423731 
892.000000	 29.846817 
891.000000	 30.252011 
890.000000	 30.642221 
889.000000	 31.014706 
888.000000	 31.373937 
887.000000	 31.724005 
886.000000	 32.051280 
885.000000	 32.332524 
884.000000	 32.560419 
883.000000	 32.746840 
882.000000	 32.902702 
881.000000	 33.031115 
880.000000	 33.140949 
879.000000	 33.248583 
878.000000	 33.359632 
877.000000	 33.462406 
876.000000	 33.544364 
875.000000	 33.600803 
874.000000	 33.620443 
873.000000	 33.576209 
872.000000	 33.441309 
871.000000	 33.209068 
870.000000	 32.894553 
869.000000	 32.526561 
868.000000	 32.140144 
867.000000	 31.762963 
866.000000	 31.399084 
865.000000	 31.032633 
864.000000	 30.653953 
863.000000	 30.276134 
862.000000	 29.920729 
861.000000	 29.595137 
860.000000	 29.289969 
859.000000	 28.988394 
858.000000	 28.668996 
857.000000	 28.312102 
856.000000	 27.919579 
855.000000	 27.518433 
854.000000	 27.122503 
853.000000	 26.697210 
852.000000	 26.197081 
851.000000	 25.651158 
850.000000	 25.177823 
849.000000	 24.879746 
848.000000	 24.734897 
847.000000	 24.615204 
846.000000	 24.406899 
845.000000	 24.097780 
844.000000	 23.750841 
843.000000	 23.422673 
842.000000	 23.127983 
841.000000	 22.858785 
840.000000	 22.603112 
839.000000	 22.345307 
838.000000	 22.070760 
837.000000	 21.779188 
836.000000	 21.487070 
835.000000	 21.216754 
834.000000	 20.985934 
833.000000	 20.799244 
832.000000	 20.641200 
831.000000	 20.483833 
830.000000	 20.313381 
829.000000	 20.146388 
828.000000	 20.006016 
827.000000	 19.883956 
826.000000	 19.740166 
825.000000	 19.541724 
824.000000	 19.291244 
823.000000	 19.020226 
822.000000	 18.770350 
821.000000	 18.576158 
820.000000	 18.441991 
819.000000	 18.332644 
818.000000	 18.204698 
817.000000	 18.050719 
816.000000	 17.898016 
815.000000	 17.762937 
814.000000	 17.627997 
813.000000	 17.472801 
812.000000	 17.306673 
811.000000	 17.155027 
810.000000	 17.028414 
809.000000	 16.922448 
808.000000	 16.837311 
807.000000	 16.777256 
806.000000	 16.733415 
805.000000	 16.682129 
804.000000	 16.601206 
803.000000	 16.480020 
802.000000	 16.318278 
801.000000	 16.127199 
800.000000	 15.932183 
799.000000	 15.765624 
798.000000	 15.651741 
797.000000	 15.593612 
796.000000	 15.567592 
795.000000	 15.531336 
794.000000	 15.452493 
793.000000	 15.339492 
792.000000	 15.234943 
791.000000	 15.170325 
790.000000	 15.136242 
789.000000	 15.103578 
788.000000	 15.058903 
787.000000	 15.005585 
786.000000	 14.943527 
785.000000	 14.867060 
784.000000	 14.777736 
783.000000	 14.683224 
782.000000	 14.585073 
781.000000	 14.479588 
780.000000	 14.368487 
779.000000	 14.259425 
778.000000	 14.159593 
777.000000	 14.074653 
776.000000	 14.006028 
775.000000	 13.941896 
774.000000	 13.861444 
773.000000	 13.758393 
772.000000	 13.650321 
771.000000	 13.554782 
770.000000	 13.469126 
769.000000	 13.386808 
768.000000	 13.317517 
767.000000	 13.269640 
766.000000	 13.223279 
765.000000	 13.145266 
764.000000	 13.027362 
763.000000	 12.890620 
762.000000	 12.758897 
761.000000	 12.648868 
760.000000	 12.579723 
759.000000	 12.563548 
758.000000	 12.580374 
757.000000	 12.586281 
756.000000	 12.553860 
755.000000	 12.489032 
754.000000	 12.409087 
753.000000	 12.327016 
752.000000	 12.258619 
751.000000	 12.217953 
750.000000	 12.194605 
749.000000	 12.155070 
748.000000	 12.079854 
747.000000	 11.984880 
746.000000	 11.892472 
745.000000	 11.794236 
744.000000	 11.665814 
743.000000	 11.514032 
742.000000	 11.385136 
741.000000	 11.318359 
740.000000	 11.300612 
739.000000	 11.277927 
738.000000	 11.212597 
737.000000	 11.119995 
736.000000	 11.041315 
735.000000	 10.989916 
734.000000	 10.942814 
733.000000	 10.880442 
732.000000	 10.811731 
731.000000	 10.753100 
730.000000	 10.702120 
729.000000	 10.644966 
728.000000	 10.575841 
727.000000	 10.495935 
726.000000	 10.407173 
725.000000	 10.318384 
724.000000	 10.240295 
723.000000	 10.163731 
722.000000	 10.061112 
721.000000	 9.925763  
720.000000	 9.792373  
719.000000	 9.692584  
718.000000	 9.611852  
717.000000	 9.520441  
716.000000	 9.420580  
715.000000	 9.333571  
714.000000	 9.261257  
713.000000	 9.189599  
712.000000	 9.116450  
711.000000	 9.047351  
710.000000	 8.978637  
709.000000	 8.910596  
708.000000	 8.856768  
707.000000	 8.814350  
706.000000	 8.755494  
705.000000	 8.682449  
704.000000	 8.641483  
703.000000	 8.618081  
702.000000	 8.471395  
701.000000	 8.084638  
700.000000	 7.575146  
699.000000	 7.244380  
698.000000	 7.279112  
697.000000	 7.553981  
696.000000	 7.790473  
695.000000	 7.855479  
694.000000	 7.806521  
693.000000	 7.723170  
692.000000	 7.618024  
691.000000	 7.496168  
690.000000	 7.403250  
689.000000	 7.379434  
688.000000	 7.407884  
687.000000	 7.432676  
686.000000	 7.410753  
685.000000	 7.344042  
684.000000	 7.282747  
683.000000	 7.289140  
682.000000	 7.374498  
681.000000	 7.480778  
680.000000	 7.552314  
679.000000	 7.605049  
678.000000	 7.688374  
677.000000	 7.800913  
676.000000	 7.890564  
675.000000	 7.927715  
674.000000	 7.925706  
673.000000	 7.886657  
672.000000	 7.786002  
671.000000	 7.595394  
670.000000	 7.325497  
669.000000	 6.988207  
668.000000	 6.622793  
667.000000	 6.423282  
666.000000	 6.446447  
665.000000	 6.492337  
664.000000	 6.422205  
663.000000	 6.279311  
662.000000	 6.191797  
661.000000	 6.208403  
660.000000	 6.261148  
659.000000	 6.283265  
658.000000	 6.295593  
657.000000	 6.375348  
656.000000	 6.577701  
655.000000	 6.911314  
654.000000	 7.344302  
653.000000	 7.808890  
652.000000	 8.233464  
651.000000	 8.608558  
650.000000	 9.021541  
649.000000	 9.586284  
648.000000	 10.325006 
647.000000	 11.148410 
646.000000	 11.952187 
645.000000	 12.690717 
644.000000	 13.347890 
643.000000	 13.891708 
642.000000	 14.300363 
641.000000	 14.601440 
640.000000	 14.840095 
639.000000	 15.018403 
638.000000	 15.094232 
637.000000	 15.035882 
636.000000	 14.857791 
635.000000	 14.604279 
634.000000	 14.315490 
633.000000	 14.012864 
632.000000	 13.709246 
631.000000	 13.419731 
630.000000	 13.155485 
629.000000	 12.915459 
628.000000	 12.693306 
627.000000	 12.485535 
626.000000	 12.288659 
625.000000	 12.104346 
624.000000	 11.951768 
623.000000	 11.854823 
622.000000	 11.810627 
621.000000	 11.793046 
620.000000	 11.806505 
619.000000	 11.917053 
618.000000	 12.187507 
617.000000	 12.585730 
616.000000	 13.021817 
615.000000	 13.480527 
614.000000	 14.038906 
613.000000	 14.740630 
612.000000	 15.514673 
611.000000	 16.244237 
610.000000	 16.879801 
609.000000	 17.452968 
608.000000	 18.018272 
607.000000	 18.626410 
606.000000	 19.319170 
605.000000	 20.088413 
604.000000	 20.846418 
603.000000	 21.487679 
602.000000	 21.979163 
601.000000	 22.363509 
600.000000	 22.675344 

